#
#This file contains the Illuminants Spectrum
#
##### D50 Illuminant #####
#Illuminant Name			Number of Wavelengths
D50 					107
# WaveLength(nm)			Intensity
300					0.019227
305					1.035266
310					2.051305
315					4.917872
320					7.784438
325					11.271460
330					14.758481
335					16.358619
340					17.958757
345					19.489960
350					21.021163
355					22.486906
360					23.952650
365					25.462641
370					26.972631
375					25.735915
380					24.499199
385					27.190478
390					29.881756
395					39.602286
400					49.322816
405					52.925542
410					56.528269
415					58.288407
420					60.048545
425					58.939356
430					57.830168
435					66.334040
440					74.837913
445					81.048982
450					87.260051
455					88.941989
460					90.623926
465					91.001066
470					91.378205
475					93.247810
480					95.117416
485					93.543685
490					91.969955
495					93.849760
500					95.729564
505					96.173834
510					96.618105
515					96.875178
520					97.132251
525					99.616854
530					102.101456
535					101.428857
540					100.756258
545					101.536994
550					102.317730
555					101.158865
560					100.000000
565					98.867202
570					97.734403
575					98.325538
580					98.916673
585					96.206800
590					93.496928
595					95.590860
600					97.684793
605					98.475058
610					99.265324
615					99.151190
620					99.037057
625					97.376990
630					95.716923
635					97.284119
640					98.851315
645					97.256246
650					95.661177
655					96.922040
660					98.182904
665					100.589169
670					102.995434
675					101.060232
680					99.125030
685					93.249568
690					87.374106
695					89.484970
700					91.595834
705					92.238637
710					92.881441
715					84.864976
720					76.848512
725					81.676644
730					86.504777
735					89.538910
740					92.573042
745					85.398644
750					78.224246
755					67.955848
760					57.687450
765					70.302114
770					82.916777
775					80.592512
780					78.268246
785					78.908379
790					79.548512
795					76.472313
800					73.396114
805					68.655848
810					63.915583
815					67.343716
820					70.771848
825					72.604047
830					74.436247
##### END OF D50 Illuminant #####
##### D65 Illuminant #####
#Illuminant Name	Number of Wavelengths
D65 				107
# WaveLength(nm)	Intensity
300					0.034107
305					1.664964
310					3.295821
315					11.769580
320					20.243339
325					28.655236
330					37.067133
335					38.514582
340					39.962032
345					42.443728
350					44.925424
355					45.788182
360					46.650941
365					49.377061
370					52.103181
375					51.045896
380					49.988611
385					52.324463
390					54.660315
395					68.715285
400					82.770254
405					87.136274
410					91.502294
415					92.474786
420					93.447278
425					90.071369
430					86.695459
435					95.786778
440					104.878098
445					110.949327
450					117.020556
455					117.422271
460					117.823986
465					116.347500
470					114.871013
475					115.401382
480					115.931751
485					112.374864
490					108.817977
495					109.089174
500					109.360371
505					108.583432
510					107.806494
515					106.299731
520					104.792968
525					106.242367
530					107.691766
535					106.049401
540					104.407036
545					104.226970
550					104.046904
555					102.023452
560					100.000000
565					98.166807
570					96.333614
575					96.060161
580					95.786709
585					92.235406
590					88.684104
595					89.343930
600					90.003757
605					89.799904
610					89.596051
615					88.645567
620					87.695083
625					85.489850
630					83.284616
635					83.489568
640					83.694520
645					81.858317
650					80.022113
655					80.115702
660					80.209291
665					81.240464
670					82.271636
675					80.274881
680					78.278125
685					73.997077
690					69.716030
695					70.659618
700					71.603207
705					72.973298
710					74.343388
715					67.971388
720					61.599387
725					65.739973
730					69.880560
735					72.481129
740					75.081698
745					69.334982
750					63.588266
755					55.001532
760					46.414799
765					56.607662
770					66.800525
775					65.089404
780					63.378283
785					63.838835
790					64.299387
795					61.873533
800					59.447679
805					55.701532
810					51.955386
815					54.695972
820					57.436558
825					58.872395
830					60.308232
##### END OF D65 Illuminant #####
